772
772
768
768
766
768
772
773
773
775
777
787
801
819
847
880
912
919
856
776
730
726
745
768
787
799
796
790
788
790
792
792
792
788
793
794
796
794
792
795
797
795
798
800
801
801
798
805
811
810
809
811
813
816
816
818
817
818
821
824
821
820
820
816
821
825
823
816
808
806
811
811
806
800
797
794
793
793
790
789
790
792
786
786
793
796
794
789
789
793
795
794
794
794
794
792
793
792
792
794
793
788
787
787
790
793
787
788
792
787
787
790
792
795
807
819
823
821
819
817
821
826
824
814
798
788
785
777
770
768
772
774
774
771
766
768
768
773
772
770
768
770
785
806
832
861
893
917
874
790
730
716
738
765
780
781
778
781
783
782
782
785
786
785
788
789
788
788
792
795
795
793
795
795
799
805
808
808
805
804
807
812
816
819
818
819
820
817
821
824
825
826
824
825
821
819
819
819
820
819
813
809
806
807
805
802
798
797
795
796
797
798
799
795
792
793
797
800
799
796
797
802
804
800
797
797
795
800
800
799
798
795
792
793
795
796
794
789
793
795
796
797
801
809
812
813
822
829
825
824
826
831
822
810
799
792
788
784
777
776
778
775
774
777
777
773
771
769
772
776
780
788
805
824
852
885
921
925
859
782
737
729
748
768
780
784
787
790
786
786
787
789
792
792
789
792
792
789
792
795
795
797
801
804
801
798
800
797
804
811
816
813
811
810
812
812
810
811
814
817
816
811
813
813
813
812
813
812
811
806
805
806
804
798
794
794
796
798
800
797
798
799
798
797
800
800
798
798
799
797
794
795
796
798
797
793
799
801
797
794
790
787
787
788
787
788
795
804
808
813
820
821
823
825
826
825
822
812
802
792
786
782
778
777
773
773
773
772
773
774
774
777
776
778
782
785
801
820
843
878
917
941
892
807
749
727
739
763
784
794
795
794
796
800
801
800
797
794
796
798
798
797
798
800
797
800
802
807
809
809
806
808
813
814
814
810
813
819
821
817
812
820
825
825
830
832
828
822
820
820
820
812
810
813
812
807
800
795
800
804
804
805
801
795
794
796
796
800
799
795
790
796
800
801
800
798
798
800
801
801
800
797
797
795
794
788
789
792
787
789
793
794
792
799
808
814
820
825
824
821
821
821
824
819
801
793
793
790
783
776
771
768
768
769
772
771
769
768
771
771
770
776
792
808
823
857
894
927
914
832
750
725
733
758
777
784
788
793
792
795
794
793
796
796
797
797
798
800
801
801
801
801
804
798
801
802
805
807
810
813
814
814
814
816
817
818
821
821
824
822
823
824
825
824
822
824
824
819
819
816
811
811
809
807
804
799
796
796
797
796
795
796
798
799
798
797
795
792
793
798
798
796
797
795
795
798
798
800
799
798
795
794
793
790
792
794
792
790
790
788
797
813
820
821
821
819
821
821
829
823
810
796
785
783
781
778
774
772
775
773
772
772
768
770
773
776
776
773
776
795
817
842
873
912
927
871
787
736
721
736
764
783
788
784
783
786
786
788
790
794
793
788
787
790
794
797
793
793
797
795
794
798
797
802
802
804
804
804
806
807
810
811
816
823
819
817
820
820
820
822
822
821
821
822
819
813
812
812
813
809
801
799
801
802
799
795
794
793
795
793
792
792
792
797
799
798
796
797
796
795
796
793
795
797
795
795
797
793
792
795
796
795
793
794
795
793
787
793
805
816
822
824
825
824
824
831
832
831
821
807
797
788
784
781
778
776
775
774
773
774
778
777
780
778
776
776
782
796
808
834
867
907
938
895
812
749
729
738
765
786
795
795
792
790
789
792
795
799
798
793
788
790
793
795
795
798
800
801
799
800
804
800
801
802
804
804
810
814
813
814
816
817
816
818
820
821
820
821
823
823
822
820
821
821
817
811
809
805
801
795
795
801
801
795
795
797
800
798
795
795
796
797
800
800
800
797
798
800
802
800
798
796
794
792
794
795
792
788
793
795
793
794
796
804
810
814
819
820
818
817
821
823
814
804
795
787
785
781
778
775
769
768
771
774
774
772
773
776
774
773
777
782
798
814
840
879
924
937
878
792
747
727
736
761
778
786
787
784
784
783
786
788
792
792
790
793
792
792
793
794
795
794
795
798
799
800
801
797
800
806
811
810
805
811
817
820
819
817
819
819
820
818
819
816
817
819
816
817
817
814
812
812
808
804
800
799
800
800
801
800
799
802
800
797
801
801
801
801
805
804
800
797
799
805
801
800
800
800
800
797
798
796
795
795
795
797
800
800
804
810
817
825
833
831
826
823
824
830
823
813
802
794
790
784
776
771
773
774
773
773
776
776
775
778
777
776
775
785
806
829
861
901
933
921
846
769
735
734
756
776
789
790
785
782
787
790
787
786
788
794
793
792
792
792
793
796
801
799
800
800
802
800
798
804
807
807
811
812
812
814
817
818
818
817
822
824
823
822
820
820
820
820
814
808
810
810
806
802
801
797
797
794
795
794
794
794
794
795
795
794
797
801
801
800
800
798
796
793
796
797
798
801
801
798
797
795
795
795
796
800
801
797
794
794
793
798
806
814
820
821
822
824
823
821
820
820
814
802
793
785
778
776
777
776
774
772
776
778
776
775
778
778
778
778
784
800
820
848
884
920
921
845
764
727
728
750
771
784
786
786
787
792
793
793
792
793
795
794
794
793
793
795
798
798
799
804
802
802
806
809
807
802
802
811
813
812
811
816
819
821
821
817
814
817
821
824
823
821
818
817
813
810
811
810
807
805
801
797
798
795
795
795
793
793
795
795
792
793
792
794
795
794
792
795
796
795
794
792
793
797
794
792
793
790
793
788
792
793
787
787
788
788
795
805
812
813
818
822
821
818
820
825
821
809
794
785
783
777
777
773
770
770
772
773
774
771
772
773
772
770
773
785
800
814
840
878
916
930
868
783
736
732
753
774
785
787
786
785
787
786
786
788
793
795
796
794
794
794
795
796
799
799
796
801
806
808
809
807
807
807
812
817
817
819
821
820
822
821
821
822
820
822
824
824
822
821
820
820
817
814
814
809
801
802
801
800
797
797
797
797
800
801
799
798
796
796
800
805
802
800
801
801
799
800
801
796
796
795
798
801
800
794
792
793
793
792
793
793
795
801
810
816
818
821
824
821
824
823
822
817
808
800
794
786
781
778
780
777
778
778
775
772
775
776
774
772
775
778
785
804
821
849
884
922
926
857
775
736
734
752
773
784
788
789
790
792
793
793
794
794
793
793
795
798
799
800
798
796
798
802
805
802
802
801
807
813
816
816
813
813
813
819
821
820
817
822
825
825
824
822
824
824
822
818
816
813
811
807
807
806
804
802
801
798
797
793
792
794
795
795
797
801
799
798
795
797
800
800
798
795
794
793
793
792
792
794
794
793
793
794
796
798
800
802
806
812
820
823
824
826
831
823
820
822
820
810
800
793
787
786
781
780
780
778
776
774
774
775
775
774
777
782
786
800
817
837
869
912
938
905
831
764
733
732
749
772
787
793
792
790
793
790
787
792
794
796
793
793
795
793
793
797
796
797
799
800
801
800
800
800
804
807
808
807
811
812
813
811
811
811
813
811
811
812
811
811
809
806
807
811
811
805
801
800
800
802
800
798
798
797
797
795
794
794
794
795
793
796
797
798
798
795
795
795
795
793
794
794
790
792
789
787
789
792
794
799
805
810
817
814
814
820
819
820
818
811
804
795
784
780
776
773
775
777
775
772
770
771
773
773
773
773
775
776
792
814
836
866
906
939
912
832
759
727
729
753
776
787
792
792
792
789
792
793
793
792
788
792
794
795
796
801
806
807
797
794
796
801
804
801
804
806
807
806
804
811
820
821
820
814
816
819
817
818
819
816
810
811
814
813
807
808
810
809
804
798
799
798
796
797
796
794
793
794
794
795
797
792
788
794
795
794
792
798
796
790
786
794
797
795
794
789
788
789
793
797
802
813
820
822
819
825
829
824
822
822
816
807
793
784
780
781
776
772
773
774
778
778
780
775
773
778
783
785
786
797
817
841
877
915
945
910
820
748
726
742
768
785
787
792
795
795
792
794
794
793
796
795
793
795
796
793
787
793
800
801
804
802
804
805
806
807
808
810
809
813
819
819
817
820
821
821
824
829
826
822
822
824
825
824
820
814
814
811
809
809
807
805
800
798
798
797
796
794
796
800
801
800
802
801
800
802
802
801
802
800
804
805
801
800
800
801
801
801
801
800
799
800
799
800
804
812
821
830
831
829
826
826
826
823
826
818
809
798
793
792
785
782
780
778
781
783
784
783
784
783
781
782
785
794
811
826
850
884
926
940
870
784
736
732
753
777
795
800
797
793
790
796
801
800
796
794
797
796
797
798
800
802
806
806
801
798
801
809
812
809
809
813
817
816
817
812
813
819
820
819
822
822
819
821
820
821
821
820
819
817
814
811
806
805
800
797
794
794
793
786
786
789
788
787
792
793
788
789
793
792
793
793
793
793
792
793
793
790
793
794
794
793
792
787
787
792
792
789
786
788
790
788
790
787
794
804
811
814
817
816
817
820
822
822
818
806
793
784
778
774
773
774
773
773
772
770
766
768
773
774
775
776
778
784
797
821
850
881
922
920
842
761
728
736
758
780
786
786
787
788
787
790
792
794
794
796
797
794
794
794
790
794
798
801
800
801
802
798
801
805
809
813
813
813
812
812
816
822
821
821
821
820
819
816
813
813
816
820
817
813
808
806
804
797
797
797
795
793
794
793
793
787
786
790
792
793
790
787
790
796
797
795
795
793
792
788
790
793
793
786
789
792
787
787
786
788
788
785
785
783
786
794
804
811
814
817
819
819
822
820
819
820
812
798
787
784
778
774
774
774
773
769
769
770
773
773
774
772
773
776
781
793
807
833
867
910
930
886
813
754
724
728
753
772
780
785
786
788
785
787
787
785
786
790
793
792
795
795
793
792
792
795
798
801
801
800
804
807
806
806
806
807
807
809
809
816
821
817
813
814
817
821
821
818
811
812
814
811
811
807
805
801
798
797
799
801
798
794
798
800
801
802
800
800
806
805
798
797
796
795
800
807
802
797
797
801
800
799
796
795
794
796
797
795
792
794
797
806
814
822
829
825
822
822
824
825
824
814
810
802
794
788
782
781
778
777
778
777
776
778
781
781
781
781
781
783
796
814
834
868
907
944
927
844
770
738
735
757
781
794
797
796
794
795
794
794
798
796
794
795
795
794
797
797
800
800
800
801
804
804
805
806
807
810
810
812
814
817
819
821
823
825
825
825
822
823
826
829
825
821
820
821
818
817
811
810
810
806
805
804
798
795
801
804
802
800
797
797
795
799
799
796
799
798
799
804
804
802
802
800
799
804
805
798
796
798
801
800
797
796
793
796
806
814
821
825
823
821
821
822
825
830
824
811
795
793
792
786
784
782
778
776
777
778
778
775
775
776
774
772
777
790
811
830
856
888
922
928
857
775
732
728
754
772
785
794
792
787
787
789
790
790
793
795
795
795
794
794
795
798
798
795
796
801
800
802
802
805
804
806
807
807
810
813
817
817
814
820
822
820
819
820
821
822
822
817
812
810
806
805
804
804
799
793
792
795
793
795
795
793
789
787
789
793
795
797
797
795
795
796
798
798
800
800
799
796
796
795
794
796
796
795
794
792
794
795
792
790
789
787
787
797
812
820
819
816
816
818
813
807
812
817
809
795
789
783
776
776
773
773
770
769
770
768
766
768
769
775
775
774
778
798
819
840
874
913
927
866
782
734
723
740
769
784
784
784
784
786
788
788
789
793
795
792
793
795
795
794
796
799
800
801
797
800
805
807
806
807
807
808
811
816
819
818
819
824
825
824
824
822
823
824
826
824
821
817
816
811
807
808
808
807
805
799
795
797
797
794
794
796
797
797
798
799
800
801
798
799
798
799
801
800
798
796
799
797
795
795
793
794
796
796
790
792
794
793
794
792
793
794
793
795
801
811
819
820
814
820
823
822
820
820
810
802
794
785
778
775
776
777
774
775
775
776
775
773
773
777
778
778
780
792
810
831
860
896
933
918
836
761
733
737
760
777
788
790
787
786
787
790
792
790
787
793
797
795
796
796
796
799
799
799
802
802
802
805
807
808
810
810
809
813
817
816
814
818
819
820
819
817
824
825
826
824
822
822
814
808
807
805
808
807
804
798
793
789
794
797
795
793
790
794
794
796
796
788
788
787
790
787
790
795
796
793
793
788
787
792
794
793
793
794
794
794
792
788
787
785
787
790
793
798
807
818
821
819
822
824
822
819
819
820
812
796
786
785
781
781
775
773
774
780
781
776
774
776
775
775
778
781
785
800
819
850
890
928
932
872
797
747
728
741
763
778
787
787
785
786
787
787
788
792
789
788
790
792
798
797
796
798
800
805
804
804
801
804
807
807
806
805
806
806
810
811
812
811
809
812
816
820
813
812
819
819
814
808
805
810
812
808
801
800
800
798
795
795
800
798
797
795
794
797
800
797
794
793
794
795
792
793
788
786
787
787
786
786
785
787
787
787
787
784
785
787
787
787
795
801
805
811
813
813
812
813
811
808
805
795
786
778
774
772
774
772
768
768
769
770
772
772
773
776
777
772
776
796
813
836
869
913
943
907
821
751
725
729
758
781
788
789
788
790
793
793
790
798
798
800
801
800
801
799
799
802
805
806
806
805
801
804
809
813
814
814
814
820
822
824
822
825
825
823
824
824
822
823
824
822
818
819
822
822
818
814
814
810
804
805
808
806
804
806
807
802
804
806
806
806
806
808
809
810
812
810
807
810
811
806
806
804
801
801
805
806
805
805
802
800
799
800
801
802
800
807
817
823
825
826
824
820
819
818
818
820
812
802
795
787
782
780
780
778
778
777
775
778
778
784
785
784
782
782
787
807
831
857
888
924
940
880
794
738
726
750
777
789
792
793
790
788
788
795
794
794
792
795
795
795
794
792
793
796
800
801
800
802
802
799
801
805
805
806
807
809
811
810
811
816
817
813
814
820
822
822
821
819
814
812
812
812
812
806
797
795
797
800
797
793
792
789
787
786
787
792
792
793
795
792
788
790
792
794
796
797
796
796
797
794
793
793
790
792
794
793
792
795
792
790
794
790
787
792
793
793
800
812
818
819
817
814
814
816
814
816
819
811
802
797
790
783
776
777
781
780
774
775
775
776
775
774
775
776
781
788
802
820
845
877
913
936
884
799
744
730
749
775
790
797
797
795
795
794
796
797
797
799
800
797
796
798
799
798
800
802
801
802
801
804
804
807
811
811
813
819
819
819
819
824
828
828
826
824
824
824
825
824
824
821
820
820
814
812
813
810
805
801
804
802
800
799
795
794
793
793
795
795
794
795
798
797
797
798
798
796
796
800
802
799
796
794
799
800
797
795
793
793
790
792
790
794
797
794
793
794
793
792
793
795
804
813
819
821
822
819
816
816
816
819
818
805
797
795
789
788
786
783
778
778
785
784
781
780
784
784
783
784
786
795
812
829
855
893
931
928
864
785
740
737
760
783
794
793
790
790
795
793
793
797
798
800
801
804
802
802
801
801
800
800
800
802
805
809
809
811
809
811
812
814
814
817
819
819
814
816
820
821
824
822
821
820
820
820
821
820
814
808
804
801
801
800
800
798
797
794
792
788
787
787
788
788
795
795
794
795
798
797
795
794
793
794
796
794
795
794
794
793
787
785
788
792
792
787
785
784
788
792
790
792
797
805
811
813
811
814
817
813
811
812
809
800
787
776
773
773
771
768
772
772
770
771
768
766
768
774
773
776
778
786
805
824
855
893
929
921
855
784
740
726
745
768
782
787
792
792
787
786
787
790
792
787
786
788
793
794
790
787
792
794
792
794
796
796
798
798
800
801
805
807
804
806
807
811
813
812
810
811
813
814
811
811
811
811
811
809
807
805
800
799
796
796
798
799
796
794
796
793
790
792
793
794
793
794
794
789
793
794
792
792
794
795
795
794
790
790
790
792
792
792
794
793
792
789
788
793
798
806
810
813
813
814
814
814
816
814
811
801
792
788
786
776
773
772
771
772
772
774
774
775
773
774
774
777
780
792
809
826
861
907
937
918
845
773
736
729
749
774
788
792
792
792
793
792
793
790
788
792
795
796
796
798
799
796
798
797
794
800
804
801
802
806
808
806
806
812
816
816
816
816
817
821
821
821
819
820
816
817
819
819
814
812
810
805
805
806
806
807
804
802
804
799
797
798
798
797
794
797
805
801
797
799
801
804
805
801
798
801
799
797
798
796
795
796
796
797
800
797
797
797
798
796
795
802
810
816
824
825
825
829
825
824
823
823
817
806
801
798
790
781
778
784
784
781
777
781
778
781
784
784
782
781
787
804
822
843
878
915
940
902
816
750
727
744
772
787
792
790
790
793
793
792
793
797
799
801
800
797
800
801
800
805
806
805
805
806
802
809
814
814
816
813
814
814
820
822
824
824
829
830
825
824
825
825
824
821
820
822
819
813
811
809
811
811
806
805
800
797
795
794
794
794
794
794
794
795
794
797
797
796
798
796
794
797
797
796
794
795
795
797
793
792
794
794
792
792
795
795
792
793
794
795
795
802
811
814
819
820
818
816
816
819
822
816
802
795
790
785
782
780
775
774
774
770
774
776
776
773
777
778
782
785
798
817
835
867
903
934
903
817
748
726
740
766
782
788
793
788
787
790
789
788
788
790
793
794
793
792
794
793
794
798
797
799
801
801
804
807
809
811
808
807
809
812
818
820
819
819
819
820
824
824
823
820
820
819
814
817
817
814
807
802
800
795
794
794
793
793
794
795
792
792
792
792
793
792
793
794
792
792
794
792
793
794
794
793
792
792
796
798
796
797
794
790
789
790
787
788
790
788
792
793
792
792
792
790
795
802
812
817
820
820
819
819
819
819
820
820
811
804
795
786
783
780
780
778
777
778
780
778
776
775
777
778
782
783
788
805
820
837
878
922
943
883
795
740
732
750
776
792
794
792
788
793
794
792
794
794
793
795
795
797
801
800
797
799
805
802
804
805
806
806
806
806
807
809
807
809
816
820
821
818
820
822
821
824
825
828
823
820
824
821
824
822
810
805
806
800
799
799
796
797
797
798
793
794
795
794
795
795
794
795
795
793
795
799
799
801
801
799
795
794
797
794
793
794
793
792
792
790
785
782
786
787
785
782
780
784
786
786
784
785
786
784
785
786
786
793
795
801
809
812
809
808
808
807
811
811
802
795
793
787
781
776
774
759
764
773
766
769
781
786
787
786
786
788
792
802
831
859
871
896
928
878
800
768
750
761
790
800
801
809
802
790
792
793
808
802
802
810
812
813
814
805
801
805
812
806
801
807
802
807
813
820
825
822
819
814
818
807
807
802
824
829
835
867
861
847
822
826
805
817
850
849
835
836
829
810
806
809
811
807
807
821
818
805
788
794
810
801
795
788
778
789
753
749
784
798
795
812
828
833
816
786
784
793
804
805
812
814
800
807
809
806
795
807
806
801
797
805
792
774
783
787
808
809
775
781
808
781
777
798
832
832
814
820
832
817
788
798
806
793
778
780
784
781
768
758
766
773
763
768
762
754
745
758
749
776
762
794
826
818
841
878
864
826
766
727
747
778
790
784
748
753
758
758
766
782
777
773
787
797
794
805
774
775
784
784
768
769
794
764
776
798
797
790
785
786
762
759
783
784
811
816
804
798
789
796
788
777
794
788
797
797
802
783
769
766
763
775
742
760
760
757
759
766
763
762
737
742
772
771
759
758
758
742
782
763
752
750
745
780
787
758
764
772
753
742
763
765
748
760
764
750
758
760
760
757
766
775
789
800
801
795
795
792
796
800
792
785
776
769
761
748
763
771
766
759
754
756
754
766
761
762
773
774
769
783
795
805
823
833
859
925
958
932
873
816
783
775
785
811
824
814
814
820
824
830
823
819
825
829
834
842
837
840
845
848
850
836
846
842
837
843
855
845
842
856
846
856
861
842
858
855
856
858
845
857
848
859
844
847
845
850
831
820
840
831
825
832
833
820
821
807
807
829
816
800
829
824
838
814
814
813
811
805
811
822
826
830
821
811
821
821
816
813
819
821
822
825
820
805
814
823
833
854
849
831
845
859
867
848
846
854
868
865
832
807
823
824
822
817
821
820
820
811
830
836
829
819
829
829
844
868
866
870
904
955
950
885
823
777
757
765
794
810
821
810
798
794
792
788
789
792
788
787
792
783
790
801
805
796
801
805
805
793
795
807
809
801
807
807
823
832
821
819
795
805
818
824
798
792
804
807
793
797
797
797
793
782
784
781
776
766
769
772
772
798
805
789
789
792
778
782
794
765
784
796
785
811
794
786
800
812
814
804
804
798
811
833
819
804
821
836
831
840
843
831
834
824
811
806
805
794
787
782
782
792
795
798
799
785
786
801
793
784
772
778
802
814
859
891
925
949
893
795
747
736
733
756
783
794
787
778
772
786
781
785
796
797
774
783
785
788
797
802
801
796
785
786
787
785
801
816
801
798
802
814
814
807
811
812
810
818
809
816
825
812
819
813
816
818
813
814
813
822
819
812
801
782
787
800
794
795
804
807
800
794
788
787
790
799
805
800
792
792
797
797
787
781
787
788
794
793
795
805
809
825
826
807
800
808
825
828
818
805
792
792
787
778
775
782
785
776
768
773
778
771
766
775
778
777
782
795
798
825
864
890
914
917
854
771
730
729
757
776
787
788
786
792
801
797
800
802
800
795
798
801
801
801
801
789
796
809
805
804
810
807
805
807
813
812
812
813
814
809
806
814
823
830
823
821
825
825
826
823
826
829
819
813
817
821
812
805
806
808
804
802
798
797
808
802
802
805
811
812
813
811
798
795
804
812
812
806
806
817
822
823
823
830
841
838
832
837
838
834
826
822
819
806
795
788
783
798
794
785
785
786
786
793
786
780
784
784
778
781
805
823
845
880
916
944
936
858
776
740
735
747
769
799
801
793
794
804
804
802
800
801
806
799
797
800
798
800
806
802
798
805
804
810
814
813
813
807
806
818
816
814
816
820
831
829
825
822
817
821
826
821
821
817
813
820
821
814
811
812
810
802
798
797
795
793
795
798
787
792
800
804
802
800
796
794
795
794
797
785
792
795
795
792
800
813
822
823
817
819
816
821
821
817
805
798
796
792
784
781
776
770
768
763
762
765
769
763
762
758
769
781
784
787
798
813
850
883
924
910
834
758
718
723
753
769
781
784
782
772
772
781
777
775
775
776
784
787
788
786
785
786
787
792
788
786
787
795
799
795
793
795
805
801
798
806
804
812
816
814
